# RADS_ASC
# Created: 2024-06-03 09:30:31 UTC: rads2asc -S c2 -V time,lat,lon,sla -o c2_240212_noiono.asc --ymd 240212,240213 -X no_iono.xml
# Satellite = CRYOSAT2
# Phase     = a
# Cycle     = 179
# Pass      = 0441
# Equ_time  = 1234330521.478142 (2024-02-12 05:35:21.478142)
# Equ_lon   =  -53.000000
# Original  = CS_OFFL_SIR_GOP_2__20240212T051031_20240212T060007_C001.nc (TAI=2024-02-12T06:00:43.774297)
# Col  1    = time [seconds since 1985-01-01 00:00:00 UTC]
# Col  2    = latitude [degrees_north]
# Col  3    = longitude [degrees_east]
# Col  4    = sea level anomaly [m]
1234329291.544450 -74.246890 -142.820046  -0.3669
1234329292.487887 -74.190758 -142.850896  -0.2640
1234329293.431324 -74.134623 -142.881561  -0.2697
1234329294.374761 -74.078484 -142.912043  -0.2910
1234329296.261635 -73.966194 -142.972463  -0.2502
1234329298.148509 -73.853890 -143.032173  -0.2631
1234329299.091946 -73.797733 -143.061765  -0.3039
1234329300.035383 -73.741573 -143.091186  -0.2630
1234329300.978820 -73.685408 -143.120436  -0.1598
1234329301.922257 -73.629241 -143.149517  -0.2646
1234329302.865694 -73.573070 -143.178431  -0.1993
1234329303.809131 -73.516895 -143.207179  -0.1890
1234329304.752568 -73.460718 -143.235765  -0.1989
1234329305.696005 -73.404536 -143.264188  -0.1612
1234329306.639442 -73.348352 -143.292450  -0.1922
1234329307.582880 -73.292164 -143.320554  -0.1727
1234329308.526317 -73.235974 -143.348501  -0.1512
1234329309.469754 -73.179779 -143.376292  -0.1777
1234329310.413191 -73.123582 -143.403929  -0.2113
1234329311.356628 -73.067382 -143.431413  -0.1847
1234329313.243501 -72.954971 -143.485930  -0.1893
1234329314.186939 -72.898761 -143.512966  -0.2017
1234329315.130376 -72.842549 -143.539855  -0.2404
1234329317.017250 -72.730114 -143.593198  -0.1670
1234329317.960686 -72.673892 -143.619656  -0.1778
1234329318.904123 -72.617667 -143.645973  -0.1552
1234329320.790998 -72.505208 -143.698188  -0.1190
1234329321.734435 -72.448975 -143.724090  -0.1481
1234329323.621308 -72.336499 -143.775487  -0.1083
1234329324.564745 -72.280257 -143.800985  -0.1298
1234329325.508183 -72.224012 -143.826352  -0.1193
1234329327.395056 -72.111513 -143.876694  -0.0904
1234329328.338493 -72.055260 -143.901672  -0.1261
1234329329.281930 -71.999004 -143.926523  -0.0768
1234329331.168805 -71.886483 -143.975849  -0.1197
1234329332.112241 -71.830219 -144.000326  -0.1047
1234329333.999115 -71.717683 -144.048914  -0.1141
1234329334.942552 -71.661411 -144.073028  -0.1634
1234329335.885989 -71.605136 -144.097022  -0.1051
1234329337.772863 -71.492579 -144.144658  -0.1647
1234329338.716300 -71.436296 -144.168302  -0.1273
1234329339.659737 -71.380012 -144.191831  -0.1386
1234329340.603174 -71.323724 -144.215246  -0.1460
1234329341.546611 -71.267434 -144.238549  -0.1420
1234329342.490048 -71.211142 -144.261740  -0.1813
1234329343.433485 -71.154847 -144.284820  -0.1389
1234329344.376922 -71.098550 -144.307790  -0.1327
1234329345.320359 -71.042250 -144.330652  -0.1437
1234329346.263796 -70.985948 -144.353406  -0.1196
1234329347.207233 -70.929643 -144.376053  -0.1173
1234329348.150670 -70.873336 -144.398594  -0.0868
1234329349.094107 -70.817027 -144.421030  -0.1416
1234329350.037544 -70.760715 -144.443363  -0.1376
1234329350.980981 -70.704401 -144.465592  -0.1001
1234329351.924419 -70.648085 -144.487718  -0.1655
1234329352.867856 -70.591766 -144.509744  -0.1298
1234329353.811293 -70.535445 -144.531669  -0.1259
1234329354.754730 -70.479122 -144.553494  -0.1275
1234329356.641604 -70.366469 -144.596849  -0.0910
1234329357.585041 -70.310139 -144.618381  -0.1071
1234329358.528477 -70.253807 -144.639816  -0.0657
1234329359.471915 -70.197472 -144.661156  -0.1146
1234329360.415352 -70.141136 -144.682402  -0.1525
1234329361.358789 -70.084797 -144.703553  -0.1270
1234329363.245662 -69.972113 -144.745578  -0.0851
1234329364.189099 -69.915768 -144.766453  -0.1254
1234329365.132537 -69.859420 -144.787237  -0.0657
1234329367.019411 -69.746719 -144.828536  -0.0758
1234329367.962847 -69.690365 -144.849052  -0.0718
1234329369.849721 -69.577651 -144.889823  -0.1202
1234329370.793159 -69.521291 -144.910078  -0.0773
1234329371.736596 -69.464929 -144.930248  -0.0894
1234329372.680032 -69.408565 -144.950333  -0.1177
1234329373.623469 -69.352199 -144.970334  -0.0688
1234329374.566906 -69.295831 -144.990251  -0.1173
1234329375.510343 -69.239461 -145.010086  -0.1042
1234329376.453781 -69.183089 -145.029838  -0.1049
1234329377.397218 -69.126715 -145.049509  -0.1159
1234329379.284091 -69.013960 -145.088609  -0.1081
1234329380.227528 -68.957580 -145.108040  -0.1385
1234329382.114403 -68.844814 -145.146664  -0.1263
1234329383.057839 -68.788429 -145.165860  -0.1076
1234329384.001276 -68.732041 -145.184979  -0.1226
1234329384.944713 -68.675651 -145.204021  -0.1128
1234329385.888150 -68.619260 -145.222987  -0.1000
1234329386.831587 -68.562866 -145.241878  -0.0328
1234329387.775024 -68.506471 -145.260695  -0.0755
1234329388.718461 -68.450074 -145.279437  -0.0966
1234329389.661898 -68.393675 -145.298106  -0.0588
1234329390.605335 -68.337274 -145.316702  -0.0731
1234329391.548772 -68.280871 -145.335226  -0.0487
1234329393.435646 -68.168060 -145.372059  -0.0251
1234329394.379083 -68.111652 -145.390369  -0.0617
1234329395.322520 -68.055242 -145.408609  -0.0789
1234329396.265957 -67.998830 -145.426779  -0.0923
1234329397.209395 -67.942416 -145.444880  -0.1063
1234329398.152832 -67.886001 -145.462913  -0.0987
1234329399.096269 -67.829584 -145.480878  -0.0937
1234329400.039706 -67.773165 -145.498775  -0.0815
1234329400.983143 -67.716744 -145.516606  -0.0706
1234329401.926580 -67.660322 -145.534370  -0.1273
1234329402.870017 -67.603898 -145.552068  -0.0629
1234329403.813453 -67.547472 -145.569700  -0.1207
1234329405.700328 -67.434615 -145.604771  -0.0693
1234329406.643765 -67.378183 -145.622210  -0.0862
1234329408.530638 -67.265316 -145.656898  -0.0561
1234329409.474075 -67.208880 -145.674148  -0.1029
1234329410.417512 -67.152442 -145.691335  -0.1071
1234329411.360950 -67.096003 -145.708461  -0.0921
1234329412.304387 -67.039561 -145.725526  -0.0972
1234329413.247823 -66.983119 -145.742530  -0.0480
1234329414.191260 -66.926674 -145.759474  -0.1110
1234329415.134697 -66.870228 -145.776358  -0.1141
1234329416.078134 -66.813780 -145.793183  -0.1069
1234329417.021572 -66.757330 -145.809948  -0.1221
1234329417.965009 -66.700879 -145.826655  -0.0679
1234329418.908445 -66.644427 -145.843303  -0.1235
1234329419.851882 -66.587972 -145.859894  -0.1286
1234329420.795319 -66.531516 -145.876428  -0.1159
1234329421.738756 -66.475059 -145.892905  -0.1351
1234329422.682194 -66.418600 -145.909325  -0.1813
1234329423.625630 -66.362139 -145.925689  -0.1592
1234329424.569067 -66.305677 -145.941998  -0.0724
1234329425.512504 -66.249213 -145.958251  -0.1401
1234329426.455941 -66.192747 -145.974449  -0.1204
1234329427.399378 -66.136280 -145.990593  -0.1400
1234329428.342815 -66.079811 -146.006683  -0.1615
1234329429.286252 -66.023341 -146.022718  -0.1211
1234329430.229689 -65.966870 -146.038701  -0.1112
1234329431.173126 -65.910396 -146.054631  -0.1475
1234329432.116563 -65.853921 -146.070507  -0.1514
1234329433.060000 -65.797445 -146.086332  -0.1274
1234329434.003437 -65.740967 -146.102105  -0.1247
1234329434.946874 -65.684488 -146.117826  -0.1058
1234329435.890311 -65.628007 -146.133496  -0.1377
1234329436.833748 -65.571524 -146.149115  -0.1819
1234329437.777185 -65.515040 -146.164684  -0.1090
1234329438.720622 -65.458555 -146.180203  -0.1042
1234329439.664059 -65.402068 -146.195672  -0.1862
1234329440.607496 -65.345579 -146.211091  -0.0858
1234329441.550933 -65.289090 -146.226461  -0.1420
1234329442.494371 -65.232598 -146.241783  -0.1289
1234329443.437808 -65.176105 -146.257056  -0.1798
1234329444.381244 -65.119611 -146.272281  -0.1352
1234329445.324682 -65.063115 -146.287458  -0.1559
1234329446.268119 -65.006618 -146.302588  -0.1415
1234329447.211556 -64.950119 -146.317671  -0.1306
1234329448.154993 -64.893619 -146.332707  -0.1428
1234329449.098429 -64.837117 -146.347697  -0.1580
1234329450.041866 -64.780614 -146.362640  -0.1534
1234329450.985304 -64.724109 -146.377537  -0.1352
1234329451.928741 -64.667603 -146.392389  -0.1786
1234329452.872178 -64.611096 -146.407196  -0.1781
1234329453.815614 -64.554587 -146.421957  -0.1526
1234329454.759051 -64.498077 -146.436674  -0.1646
1234329455.702488 -64.441565 -146.451347  -0.1436
1234329456.645926 -64.385052 -146.465976  -0.1226
1234329457.589363 -64.328537 -146.480561  -0.1286
1234329458.532800 -64.272021 -146.495102  -0.1407
1234329459.476236 -64.215504 -146.509600  -0.2131
1234329460.419673 -64.158985 -146.524055  -0.1747
1234329461.363110 -64.102465 -146.538468  -0.1458
1234329462.306548 -64.045943 -146.552838  -0.1446
1234329463.249985 -63.989420 -146.567166  -0.1391
1234329464.193421 -63.932896 -146.581453  -0.1253
1234329465.136858 -63.876371 -146.595697  -0.1241
1234329466.080295 -63.819843 -146.609901  -0.1497
1234329467.023732 -63.763315 -146.624064  -0.1154
1234329467.967170 -63.706785 -146.638185  -0.1720
1234329468.910606 -63.650254 -146.652267  -0.1217
1234329469.854043 -63.593721 -146.666308  -0.1207
1234329470.797480 -63.537187 -146.680309  -0.1271
1234329471.740917 -63.480652 -146.694270  -0.1330
1234329472.684354 -63.424116 -146.708192  -0.1521
1234329473.627791 -63.367578 -146.722075  -0.1451
1234329474.571228 -63.311038 -146.735919  -0.1282
1234329475.514665 -63.254498 -146.749724  -0.1171
1234329476.458102 -63.197956 -146.763491  -0.1271
1234329477.401539 -63.141412 -146.777220  -0.1106
1234329478.344976 -63.084868 -146.790910  -0.1080
1234329479.288413 -63.028322 -146.804563  -0.1220
1234329480.231850 -62.971775 -146.818179  -0.1201
1234329481.175287 -62.915226 -146.831757  -0.1263
1234329482.118724 -62.858676 -146.845298  -0.0899
1234329483.062161 -62.802125 -146.858802  -0.0904
1234329484.005598 -62.745572 -146.872270  -0.0847
1234329484.949035 -62.689018 -146.885701  -0.1219
1234329485.892472 -62.632463 -146.899096  -0.0706
1234329486.835910 -62.575907 -146.912456  -0.1122
1234329487.779347 -62.519349 -146.925780  -0.1525
1234329488.722784 -62.462790 -146.939068  -0.1658
1234329489.666220 -62.406229 -146.952321  -0.0805
1234329490.609658 -62.349668 -146.965539  -0.1390
1234329491.553095 -62.293105 -146.978722  -0.0906
1234329492.496532 -62.236540 -146.991871  -0.1090
1234329493.439969 -62.179975 -147.004985  -0.1024
1234329494.383405 -62.123408 -147.018066  -0.1183
1234329495.326842 -62.066840 -147.031112  -0.1196
1234329496.270280 -62.010271 -147.044124  -0.0834
1234329497.213717 -61.953700 -147.057103  -0.1098
1234329498.157154 -61.897128 -147.070049  -0.0918
1234329499.100591 -61.840555 -147.082961  -0.1143
1234329500.044027 -61.783981 -147.095841  -0.1021
1234329500.987464 -61.727405 -147.108688  -0.1441
1234329501.930902 -61.670828 -147.121502  -0.0601
1234329502.874339 -61.614250 -147.134284  -0.1281
1234329503.817776 -61.557670 -147.147033  -0.1075
1234329504.761212 -61.501090 -147.159751  -0.1171
1234329505.704649 -61.444508 -147.172437  -0.1247
1234329506.648086 -61.387925 -147.185091  -0.1382
1234329507.591524 -61.331340 -147.197715  -0.1413
1234329508.534961 -61.274755 -147.210306  -0.1055
1234329509.478397 -61.218168 -147.222867  -0.1396
1234329510.421834 -61.161579 -147.235397  -0.0999
1234329511.365271 -61.104990 -147.247896  -0.0990
1234329512.308708 -61.048399 -147.260365  -0.1403
1234329513.252146 -60.991808 -147.272804  -0.1276
1234329514.195582 -60.935215 -147.285212  -0.1140
1234329515.139019 -60.878620 -147.297590  -0.1127
1234329516.082456 -60.822025 -147.309939  -0.0933
1234329517.025893 -60.765428 -147.322258  -0.1031
1234329517.969330 -60.708830 -147.334548  -0.0859
1234329518.912767 -60.652231 -147.346808  -0.1021
1234329519.856204 -60.595630 -147.359040  -0.1382
1234329520.799641 -60.539029 -147.371242  -0.1043
1234329521.743078 -60.482426 -147.383416  -0.1214
1234329522.686515 -60.425822 -147.395561  -0.1136
1234329523.629952 -60.369217 -147.407677  -0.0938
1234329524.573389 -60.312610 -147.419766  -0.0679
1234329525.516826 -60.256003 -147.431826  -0.1453
1234329526.460263 -60.199394 -147.443858  -0.1199
1234329527.403700 -60.142784 -147.455863  -0.1271
1234329528.347137 -60.086173 -147.467840  -0.1153
1234329529.290574 -60.029560 -147.479789  -0.1020
1234329530.234011 -59.972947 -147.491711  -0.1325
1234329531.177448 -59.916332 -147.503606  -0.1311
1234329532.120886 -59.859716 -147.515474  -0.1296
1234329533.064323 -59.803099 -147.527316  -0.0700
1234329534.007760 -59.746481 -147.539130  -0.1309
1234329534.951196 -59.689861 -147.550918  -0.1167
1234329535.894634 -59.633240 -147.562680  -0.1228
1234329536.838071 -59.576618 -147.574415  -0.0987
1234329537.781508 -59.519995 -147.586124  -0.1089
1234329538.724945 -59.463371 -147.597807  -0.0886
1234329539.668382 -59.406746 -147.609465  -0.0855
1234329540.611818 -59.350119 -147.621097  -0.1228
1234329541.555256 -59.293491 -147.632703  -0.1453
1234329542.498693 -59.236863 -147.644284  -0.1155
1234329543.442130 -59.180232 -147.655840  -0.1154
1234329544.385567 -59.123601 -147.667370  -0.1277
1234329545.329003 -59.066969 -147.678876  -0.0427
1234329546.272440 -59.010335 -147.690357  -0.0770
1234329547.215878 -58.953700 -147.701813  -0.0996
1234329548.159315 -58.897065 -147.713244  -0.0866
1234329549.102752 -58.840428 -147.724651  -0.1160
1234329550.046188 -58.783789 -147.736034  -0.1440
1234329550.989625 -58.727150 -147.747393  -0.0933
1234329551.933062 -58.670510 -147.758727  -0.0996
1234329552.876500 -58.613868 -147.770038  -0.0968
1234329553.819937 -58.557225 -147.781325  -0.1324
1234329554.763373 -58.500581 -147.792589  -0.1502
1234329555.706810 -58.443936 -147.803828  -0.0986
1234329556.650247 -58.387290 -147.815045  -0.0727
1234329557.593684 -58.330642 -147.826238  -0.1199
1234329558.537122 -58.273994 -147.837408  -0.0965
1234329559.480558 -58.217344 -147.848556  -0.1028
1234329560.423995 -58.160694 -147.859680  -0.1332
1234329561.367432 -58.104042 -147.870781  -0.1154
1234329562.310869 -58.047389 -147.881860  -0.0689
1234329563.254306 -57.990734 -147.892917  -0.0597
1234329564.197743 -57.934079 -147.903951  -0.0812
1234329565.141180 -57.877423 -147.914962  -0.0670
1234329566.084617 -57.820765 -147.925952  -0.0912
1234329567.028054 -57.764106 -147.936919  -0.0504
1234329567.971491 -57.707446 -147.947865  -0.0286
1234329568.914928 -57.650785 -147.958789  -0.0595
1234329569.858365 -57.594123 -147.969691  -0.0243
1234329570.801802 -57.537460 -147.980571  -0.0205
1234329571.745239 -57.480796 -147.991431  -0.0408
1234329572.688676 -57.424130 -148.002268  -0.0839
1234329573.632113 -57.367464 -148.013085  -0.0175
1234329574.575550 -57.310796 -148.023880  -0.0582
1234329575.518987 -57.254127 -148.034655  -0.0999
1234329576.462424 -57.197457 -148.045408  -0.0854
1234329577.405862 -57.140786 -148.056141  -0.0936
1234329578.349299 -57.084114 -148.066853  -0.1345
1234329579.292736 -57.027441 -148.077544  -0.1419
1234329580.236173 -56.970766 -148.088215  -0.1783
1234329581.179609 -56.914091 -148.098866  -0.2142
1234329582.123047 -56.857414 -148.109496  -0.2723
1234329583.066484 -56.800737 -148.120106  -0.2748
1234329584.009921 -56.744058 -148.130696  -0.3038
1234329584.953358 -56.687378 -148.141267  -0.3216
1234329585.896794 -56.630697 -148.151817  -0.2588
1234329586.840231 -56.574015 -148.162347  -0.2696
1234329587.783669 -56.517331 -148.172858  -0.2780
1234329588.727106 -56.460647 -148.183350  -0.2337
1234329589.670543 -56.403962 -148.193822  -0.1944
1234329590.613979 -56.347275 -148.204274  -0.1594
1234329591.557416 -56.290588 -148.214708  -0.0850
1234329592.500853 -56.233899 -148.225122  -0.0924
1234329593.444291 -56.177209 -148.235517  -0.0058
1234329594.387728 -56.120518 -148.245893  -0.0005
1234329595.331164 -56.063826 -148.256251   0.0245
1234329596.274601 -56.007133 -148.266589   0.0065
1234329597.218038 -55.950439 -148.276909   0.0425
1234329598.161475 -55.893744 -148.287210   0.0339
1234329599.104913 -55.837047 -148.297493   0.0242
1234329600.048349 -55.780350 -148.307758  -0.0090
1234329600.991786 -55.723651 -148.318004   0.0049
1234329601.935223 -55.666952 -148.328232   0.0174
1234329602.878660 -55.610251 -148.338442  -0.0249
1234329603.822097 -55.553549 -148.348634  -0.0229
1234329604.765535 -55.496846 -148.358807  -0.0872
1234329605.708971 -55.440143 -148.368964  -0.0862
1234329606.652408 -55.383438 -148.379102  -0.1353
1234329607.595845 -55.326731 -148.389222  -0.1068
1234329608.539282 -55.270024 -148.399326  -0.1705
1234329609.482719 -55.213316 -148.409411  -0.2312
1234329610.426156 -55.156607 -148.419479  -0.2211
1234329611.369593 -55.099896 -148.429530  -0.2338
1234329612.313030 -55.043185 -148.439564  -0.2354
1234329613.256467 -54.986472 -148.449580  -0.2453
1234329614.199904 -54.929759 -148.459580  -0.2455
1234329615.143341 -54.873044 -148.469562  -0.2586
1234329616.086778 -54.816328 -148.479527  -0.2320
1234329617.030215 -54.759611 -148.489476  -0.2153
1234329617.973652 -54.702893 -148.499408  -0.2053
1234329618.917089 -54.646174 -148.509323  -0.1749
1234329619.860526 -54.589454 -148.519222  -0.2071
1234329620.803963 -54.532733 -148.529104  -0.1666
1234329621.747401 -54.476011 -148.538970  -0.1532
1234329622.690838 -54.419288 -148.548820  -0.0827
1234329623.634275 -54.362563 -148.558653  -0.0961
1234329624.577712 -54.305838 -148.568470  -0.0485
1234329625.521149 -54.249111 -148.578271  -0.0651
1234329626.464585 -54.192384 -148.588056  -0.0842
1234329627.408023 -54.135655 -148.597825  -0.0925
1234329628.351460 -54.078926 -148.607578  -0.0286
1234329629.294897 -54.022195 -148.617315  -0.0955
1234329630.238334 -53.965463 -148.627037  -0.1275
1234329631.181770 -53.908730 -148.636743  -0.0358
1234329632.125207 -53.851997 -148.646433  -0.0597
1234329633.068645 -53.795262 -148.656108  -0.0300
1234329634.012082 -53.738526 -148.665768  -0.0513
1234329634.955519 -53.681789 -148.675412  -0.0106
1234329635.898955 -53.625051 -148.685041  -0.0083
1234329636.842392 -53.568311 -148.694654   0.0552
1234329638.729267 -53.454830 -148.713836   0.0781
1234329639.672704 -53.398088 -148.723405   0.0636
1234329640.616140 -53.341344 -148.732958   0.1198
1234329641.559577 -53.284600 -148.742497   0.1682
1234329642.503014 -53.227854 -148.752021   0.1641
1234329643.446451 -53.171108 -148.761530   0.1733
1234329644.389889 -53.114360 -148.771025   0.1819
1234329645.333326 -53.057612 -148.780505   0.1837
1234329646.276762 -53.000862 -148.789971   0.1875
1234329647.220199 -52.944111 -148.799422   0.1898
1234329648.163636 -52.887360 -148.808859   0.1744
1234329649.107073 -52.830607 -148.818281   0.1648
1234329650.050511 -52.773853 -148.827689   0.1487
1234329650.993947 -52.717098 -148.837083   0.1725
1234329651.937384 -52.660342 -148.846463   0.1573
1234329652.880821 -52.603585 -148.855829   0.1454
1234329653.824258 -52.546827 -148.865181   0.1732
1234329654.767695 -52.490068 -148.874519   0.1339
1234329655.711132 -52.433308 -148.883843   0.1037
1234329656.654569 -52.376547 -148.893154   0.0834
1234329657.598006 -52.319785 -148.902451   0.0879
1234329658.541443 -52.263022 -148.911734   0.0403
1234329659.484880 -52.206258 -148.921003   0.0413
1234329660.428317 -52.149492 -148.930259  -0.0246
1234329661.371754 -52.092726 -148.939502  -0.0068
1234329662.315191 -52.035959 -148.948731   0.0182
1234329663.258628 -51.979190 -148.957946  -0.0128
1234329664.202065 -51.922421 -148.967149  -0.0213
1234329665.145502 -51.865650 -148.976338  -0.0689
1234329666.088939 -51.808879 -148.985514  -0.0517
1234329667.032377 -51.752106 -148.994677  -0.0852
1234329667.975814 -51.695333 -149.003827  -0.0864
1234329668.919251 -51.638558 -149.012964  -0.0497
1234329669.862688 -51.581783 -149.022088  -0.0683
1234329670.806125 -51.525006 -149.031199  -0.0360
1234329671.749561 -51.468228 -149.040297  -0.0661
1234329672.692999 -51.411450 -149.049383  -0.0416
1234329673.636436 -51.354670 -149.058456  -0.0263
1234329674.579873 -51.297889 -149.067516  -0.0281
1234329675.523310 -51.241107 -149.076564  -0.0081
