# RADS_ASC
# Created: 2024-06-03 09:32:23 UTC: rads2asc -S s3a -V time,lat,lon,sla -o s3a_240212_noiono_100.asc --ymd 240212,240213 -X no_iono.xml --step 100
# Satellite = SNTNL-3A
# Phase     = a
# Cycle     = 109
# Pass      = 0089
# Equ_time  = 1234310468.971000 (2024-02-12 00:01:08.971000)
# Equ_lon   =  -30.230000
# Original  = S3A_SR_2_WAT___109_089______MAR_O_ST_005.nc (IPF-SM-2 07.04)
# Col  1    = time [seconds since 1985-01-01 00:00:00 UTC]
# Col  2    = latitude [degrees_north]
# Col  3    = longitude [degrees_east]
# Col  4    = sea level anomaly [m]
1234310400.000000  -4.075727  -29.329982   0.0044
1234310500.000000   1.833821  -30.639289  -0.0251
1234310600.000000   7.743890  -31.954673   0.0098
1234310700.000000  13.651467  -33.295618   0.0101
1234310800.000000  19.553440  -34.683849  -0.2196
1234310900.000000  25.446502  -36.145476  -0.0272
1234311000.000000  31.326972  -37.714032   0.0623
1234311100.000000  37.190480  -39.435210  -0.0353
1234311200.000000  43.031380  -41.374812  -0.6201
1234311300.000000  48.841661  -43.633002   0.1379
1234311400.000000  54.608778  -46.371686  -0.0046
1234311500.000000  60.311034  -49.871331   0.0200
1234311600.000000  65.906739  -54.659977   0.0316

# RADS_ASC
# Created: 2024-06-03 09:32:23 UTC: rads2asc -S s3a -V time,lat,lon,sla -o s3a_240212_noiono_100.asc --ymd 240212,240213 -X no_iono.xml --step 100
# Satellite = SNTNL-3A
# Phase     = a
# Cycle     = 109
# Pass      = 0090
# Equ_time  = 1234313494.013000 (2024-02-12 00:51:34.013000)
# Equ_lon   =  137.160000
# Original  = S3A_SR_2_WAT___109_090______MAR_O_ST_005.nc (IPF-SM-2 07.04)
# Col  1    = time [seconds since 1985-01-01 00:00:00 UTC]
# Col  2    = latitude [degrees_north]
# Col  3    = longitude [degrees_east]
# Col  4    = sea level anomaly [m]
1234312514.000000  57.420984  154.898163  -0.0323
1234312614.000000  51.681546  151.831415   0.0195
1234312714.000000  45.889779  149.362743  -0.0795
1234312814.000000  40.061908  147.282005   0.0095
1234313014.000000  28.334106  143.826496   0.0809
1234313114.000000  22.445715  142.317097   0.0137
1234313214.000000  16.546613  140.896401  -0.0120
1234313314.000000  10.640275  139.535106  -0.0625
1234313414.000000   4.729907  138.209639  -0.2247
1234313514.000000  -1.181425  136.899639  -0.2313
1234313645.000000  -8.921716  135.175181   0.0211
1234314069.000000 -33.867103  128.955163  -0.1096
1234314169.000000 -39.705951  127.153239   0.0526
1234314269.000000 -45.517048  125.097288   0.0381
1234314369.000000 -51.291125  122.666653  -0.3219
1234314469.000000 -57.012958  119.661205  -0.0877
1234314569.000000 -62.654972  115.723497  -0.0016

# RADS_ASC
# Created: 2024-06-03 09:32:23 UTC: rads2asc -S s3a -V time,lat,lon,sla -o s3a_240212_noiono_100.asc --ymd 240212,240213 -X no_iono.xml --step 100
# Satellite = SNTNL-3A
# Phase     = a
# Cycle     = 109
# Pass      = 0091
# Equ_time  = 1234316528.117000 (2024-02-12 01:42:08.117000)
# Equ_lon   =  -55.480000
# Original  = S3A_SR_2_WAT___109_091______MAR_O_ST_005.nc (IPF-SM-2 07.04)
# Col  1    = time [seconds since 1985-01-01 00:00:00 UTC]
# Col  2    = latitude [degrees_north]
# Col  3    = longitude [degrees_east]
# Col  4    = sea level anomaly [m]
1234315349.000000 -68.374524  -28.204146   0.0187
1234315449.000000 -62.875679  -33.859320  -0.0259
1234315549.000000 -57.238242  -37.844706  -0.0442
1234315649.000000 -51.519592  -40.878605   0.0221
1234315749.000000 -45.748011  -43.327333   0.0982
1234315849.000000 -39.939042  -45.395326   0.6108
1234315949.000000 -34.102114  -47.205513   0.0791
1234316720.000000  11.339168  -58.013399  -0.0522
1234316820.000000  17.243582  -59.380205  -0.0417
1234316920.000000  23.140399  -60.809493  -0.0430
1234317020.000000  29.026116  -62.331439  -0.0411
1234317120.000000  34.896682  -63.986243  -0.0981
1234317220.000000  40.747050  -65.830573  -0.0750

# RADS_ASC
# Created: 2024-06-03 09:32:23 UTC: rads2asc -S s3a -V time,lat,lon,sla -o s3a_240212_noiono_100.asc --ymd 240212,240213 -X no_iono.xml --step 100
# Satellite = SNTNL-3A
# Phase     = a
# Cycle     = 109
# Pass      = 0092
# Equ_time  = 1234319553.262000 (2024-02-12 02:32:33.262000)
# Equ_lon   =  111.920000
# Original  = S3A_SR_2_WAT___109_092______MAR_O_ST_005.nc (IPF-SM-2 07.04)
# Col  1    = time [seconds since 1985-01-01 00:00:00 UTC]
# Col  2    = latitude [degrees_north]
# Col  3    = longitude [degrees_east]
# Col  4    = sea level anomaly [m]
1234319247.000000  18.095532  116.015480  -0.2744
1234319347.000000  12.190922  114.641218  -0.0919
1234319447.000000   6.281437  113.308575  -0.0585
1234319639.000000  -5.067173  110.791181   0.0766
1234319747.000000 -11.445663  109.357657  -0.0405
1234319847.000000 -17.344219  107.991107  -0.1507
1234319947.000000 -23.232396  106.562252  -0.0164
1234320047.000000 -29.106810  105.041016  -0.0502
1234320147.000000 -34.963572  103.387373  -0.0633
1234320247.000000 -40.797830  101.544965   0.1091
1234320347.000000 -46.602920   99.429991   0.0217
1234320447.000000 -52.368745   96.910466   0.0568
1234320547.000000 -58.078420   93.764633   0.1294
1234320647.000000 -63.700762   89.590209  -0.0008

# RADS_ASC
# Created: 2024-06-03 09:32:23 UTC: rads2asc -S s3a -V time,lat,lon,sla -o s3a_240212_noiono_100.asc --ymd 240212,240213 -X no_iono.xml --step 100
# Satellite = SNTNL-3A
# Phase     = a
# Cycle     = 109
# Pass      = 0093
# Equ_time  = 1234322587.312000 (2024-02-12 03:23:07.312000)
# Equ_lon   =  -80.730000
# Original  = S3A_SR_2_WAT___109_093______MAR_O_ST_005.nc (IPF-SM-2 07.04)
# Col  1    = time [seconds since 1985-01-01 00:00:00 UTC]
# Col  2    = latitude [degrees_north]
# Col  3    = longitude [degrees_east]
# Col  4    = sea level anomaly [m]
1234321530.000000 -61.657664  -60.085312   0.0526
1234321630.000000 -55.998805  -63.818624   0.0338
1234321730.000000 -50.266574  -66.700991   0.0215
1234322057.000000 -31.246169  -73.267026   0.0245
1234322157.000000 -25.378585  -74.831098  -0.0183
1234322257.000000 -19.495940  -76.289610  -0.0087
1234322357.000000 -13.601758  -77.675708   0.0729
1234322645.000000   3.409525  -81.481566  -0.0530
1234322759.000000  10.146441  -82.988275   0.0451
1234322883.000000  17.468603  -84.678550  -0.1118
1234322983.000000  23.365205  -86.110536   0.1495
1234323083.000000  29.250552  -87.636483  -0.0169

# RADS_ASC
# Created: 2024-06-03 09:32:23 UTC: rads2asc -S s3a -V time,lat,lon,sla -o s3a_240212_noiono_100.asc --ymd 240212,240213 -X no_iono.xml --step 100
# Satellite = SNTNL-3A
# Phase     = a
# Cycle     = 109
# Pass      = 0094
# Equ_time  = 1234325612.478000 (2024-02-12 04:13:32.478000)
# Equ_lon   =   86.670000
# Original  = S3A_SR_2_WAT___109_094______MAR_O_ST_005.nc (IPF-SM-2 07.04)
# Col  1    = time [seconds since 1985-01-01 00:00:00 UTC]
# Col  2    = latitude [degrees_north]
# Col  3    = longitude [degrees_east]
# Col  4    = sea level anomaly [m]
1234325273.000000  20.054301   91.239167  -0.2401
1234325373.000000  14.152243   89.846032  -0.1821
1234325473.000000   8.244281   88.502202  -0.1986
1234325573.000000   2.333548   87.185674  -0.0958
1234325673.000000  -3.576927   85.876845  -0.0250
1234325773.000000  -9.484157   84.556770  -0.0464
1234325873.000000 -15.385146   83.205551   0.2215
1234325973.000000 -21.276813   81.800542   0.1671
1234326073.000000 -27.155883   80.314033   0.1327
1234326173.000000 -33.018673   78.709866   0.0435
1234326273.000000 -38.860723   76.938064   0.0260
1234326373.000000 -44.676104   74.925653   0.1895
1234326473.000000 -50.456126   72.559943   0.1073
1234326573.000000 -56.186718   69.655827   0.0253

# RADS_ASC
# Created: 2024-06-03 09:32:23 UTC: rads2asc -S s3a -V time,lat,lon,sla -o s3a_240212_noiono_100.asc --ymd 240212,240213 -X no_iono.xml --step 100
# Satellite = SNTNL-3A
# Phase     = a
# Cycle     = 109
# Pass      = 0095
# Equ_time  = 1234328646.606000 (2024-02-12 05:04:06.606000)
# Equ_lon   = -105.970000
# Original  = S3A_SR_2_WAT___109_095______MAR_O_ST_005.nc (IPF-SM-2 07.04)
# Col  1    = time [seconds since 1985-01-01 00:00:00 UTC]
# Col  2    = latitude [degrees_north]
# Col  3    = longitude [degrees_east]
# Col  4    = sea level anomaly [m]
1234327490.000000 -67.157057  -80.177244  -0.0043
1234327590.000000 -61.619155  -85.362650   0.1509
1234327690.000000 -55.959674  -89.088132  -0.0487
1234327790.000000 -50.227030  -91.965716  -0.0544
1234327890.000000 -44.445718  -94.314366   0.0031
1234327990.000000 -38.629508  -96.315313  -0.0443
1234328090.000000 -32.786941  -98.079182   0.0233
1234328190.000000 -26.923859  -99.677773   0.0032
1234328290.000000 -21.044677 -101.160369  -0.0376
1234328390.000000 -15.153050 -102.562701  -0.0074
1234328490.000000  -9.252237 -103.912215  -0.0289
1234328590.000000  -3.345309 -105.231404   0.0369
1234328690.000000   2.564745 -106.540086  -0.0975
1234328790.000000   8.474943 -107.857192  -0.0562
1234328890.000000  14.382260 -109.202381  -0.0217
1234328990.000000  20.283565 -110.597782  -0.0062

# RADS_ASC
# Created: 2024-06-03 09:32:23 UTC: rads2asc -S s3a -V time,lat,lon,sla -o s3a_240212_noiono_100.asc --ymd 240212,240213 -X no_iono.xml --step 100
# Satellite = SNTNL-3A
# Phase     = a
# Cycle     = 109
# Pass      = 0096
# Equ_time  = 1234331671.739000 (2024-02-12 05:54:31.739000)
# Equ_lon   =   61.420000
# Original  = S3A_SR_2_WAT___109_096______MAR_O_ST_005.nc (IPF-SM-2 07.04)
# Col  1    = time [seconds since 1985-01-01 00:00:00 UTC]
# Col  2    = latitude [degrees_north]
# Col  3    = longitude [degrees_east]
# Col  4    = sea level anomaly [m]
1234331268.000000  23.841744   66.925828  -0.0691
1234331368.000000  17.945361   65.487459  -0.1888
1234331468.000000  12.040981   64.114767  -0.2427
1234331568.000000   6.131850   62.783093   0.0345
1234331668.000000   0.221051   61.471512  -0.0729
1234331768.000000  -5.688415   60.160848   0.1170
1234331968.000000 -17.491392   57.464346   0.0920
1234332068.000000 -23.378760   56.033717  -0.0173
1234332168.000000 -29.252282   54.509863  -0.0251
1234332268.000000 -35.108055   52.852456  -0.1472
1234332368.000000 -40.941200   51.004642   0.1205
1234332468.000000 -46.744999   48.881757  -0.0767
1234332568.000000 -52.509244   46.350270   0.0480
1234332668.000000 -58.216827   43.185440   0.0212
1234332768.000000 -63.836069   38.978744   0.0361

# RADS_ASC
# Created: 2024-06-03 09:32:23 UTC: rads2asc -S s3a -V time,lat,lon,sla -o s3a_240212_noiono_100.asc --ymd 240212,240213 -X no_iono.xml --step 100
# Satellite = SNTNL-3A
# Phase     = a
# Cycle     = 109
# Pass      = 0097
# Equ_time  = 1234334705.870000 (2024-02-12 06:45:05.870000)
# Equ_lon   = -131.220000
# Original  = S3A_SR_2_WAT___109_097______MAR_O_ST_005.nc (IPF-SM-2 07.04)
# Col  1    = time [seconds since 1985-01-01 00:00:00 UTC]
# Col  2    = latitude [degrees_north]
# Col  3    = longitude [degrees_east]
# Col  4    = sea level anomaly [m]
1234333550.000000 -67.118377 -105.467490  -0.2637
1234333669.000000 -60.511216 -111.433135  -0.0224
1234333769.000000 -54.834463 -114.955918  -0.2351
1234333869.000000 -49.090648 -117.709917  -0.0463
1234333969.000000 -43.301469 -119.978686   0.0149
1234334069.000000 -37.479365 -121.925797   0.0390
1234334169.000000 -31.632203 -123.652378   0.1210
1234334269.000000 -25.765469 -125.224815  -0.0535
1234334369.000000 -19.883390 -126.689161   0.0247
1234334469.000000 -13.989522 -128.079181  -0.0102
1234334569.000000  -8.087078 -129.421128  -0.0407
1234334669.000000  -2.179108 -130.736809  -0.0096
1234334769.000000   3.731401 -132.045745  -0.0868
1234334869.000000   9.641460 -133.366886  -0.1037
1234334969.000000  15.548025 -134.720235   0.0953
1234335069.000000  21.447930 -136.128658   0.1129
1234335169.000000  27.337766 -137.620256  -0.0012
1234335269.000000  33.213669 -139.231833   0.0723
1234335369.000000  39.070939 -141.014455  -0.0101
1234335469.000000  44.903326 -143.042967  -0.1076
1234335569.000000  50.701675 -145.433438   0.0345
1234335669.000000  56.451192 -148.377473  -0.0497

# RADS_ASC
# Created: 2024-06-03 09:32:23 UTC: rads2asc -S s3a -V time,lat,lon,sla -o s3a_240212_noiono_100.asc --ymd 240212,240213 -X no_iono.xml --step 100
# Satellite = SNTNL-3A
# Phase     = a
# Cycle     = 109
# Pass      = 0098
# Equ_time  = 1234337730.981000 (2024-02-12 07:35:30.981000)
# Equ_lon   =   36.180000
# Original  = S3A_SR_2_WAT___109_098______MAR_O_ST_005.nc (IPF-SM-2 07.04)
# Col  1    = time [seconds since 1985-01-01 00:00:00 UTC]
# Col  2    = latitude [degrees_north]
# Col  3    = longitude [degrees_east]
# Col  4    = sea level anomaly [m]
1234337418.000000  18.490440   40.370666   0.1160
1234338319.000000 -34.626079   27.747432   0.0370
1234338419.000000 -40.461314   25.917801  -0.0280
1234338519.000000 -46.267864   23.821502   0.0205
1234338619.000000 -52.035902   21.330202   0.0265
1234338719.000000 -57.749087   18.229150   0.0433
1234338819.000000 -63.377417   14.130670   0.0251
1234338919.000000 -68.859375    8.267719   0.0028

# RADS_ASC
# Created: 2024-06-03 09:32:23 UTC: rads2asc -S s3a -V time,lat,lon,sla -o s3a_240212_noiono_100.asc --ymd 240212,240213 -X no_iono.xml --step 100
# Satellite = SNTNL-3A
# Phase     = a
# Cycle     = 109
# Pass      = 0099
# Equ_time  = 1234340765.068000 (2024-02-12 08:26:05.068000)
# Equ_lon   = -156.460000
# Original  = S3A_SR_2_WAT___109_099______MAR_O_ST_005.nc (IPF-SM-2 07.04)
# Col  1    = time [seconds since 1985-01-01 00:00:00 UTC]
# Col  2    = latitude [degrees_north]
# Col  3    = longitude [degrees_east]
# Col  4    = sea level anomaly [m]
1234339576.000000 -68.915762 -128.482961  -0.1071
1234339676.000000 -63.435890 -134.370934  -0.1125
1234339776.000000 -57.808703 -138.482962  -0.1941
1234339876.000000 -52.096226 -141.592019   0.1168
1234339976.000000 -46.328668 -144.088373   0.1068
1234340076.000000 -40.522466 -146.188021  -0.0121
1234340176.000000 -34.687496 -148.019947   0.0436
1234340276.000000 -28.830301 -149.666283   0.0493
1234340376.000000 -22.955672 -151.182405  -0.1142
1234340576.000000 -11.169035 -153.972022   0.0258
1234340676.000000  -5.263509 -155.299049   0.0278
1234340776.000000   0.646104 -156.609309  -0.1092
1234340876.000000   6.556823 -157.921853  -0.1537
1234340976.000000  12.465637 -159.255930   0.0119
1234341076.000000  18.369456 -160.632665  -0.0782
1234341176.000000  24.265016 -162.077083   0.0457
1234341276.000000  30.148723 -163.620919   0.0861
1234341376.000000  36.016376 -165.306925   0.0035
1234341476.000000  41.862650 -167.195997   0.1144
1234341576.000000  47.680137 -169.379789   0.0591
1234341676.000000  53.457457 -172.004586   0.0402
1234341776.000000  59.175328 -175.320069   0.0483

# RADS_ASC
# Created: 2024-06-03 09:32:23 UTC: rads2asc -S s3a -V time,lat,lon,sla -o s3a_240212_noiono_100.asc --ymd 240212,240213 -X no_iono.xml --step 100
# Satellite = SNTNL-3A
# Phase     = a
# Cycle     = 109
# Pass      = 0100
# Equ_time  = 1234343790.172000 (2024-02-12 09:16:30.172000)
# Equ_lon   =   10.930000
# Original  = S3A_SR_2_WAT___109_100______MAR_O_ST_005.nc (IPF-SM-2 07.04)
# Col  1    = time [seconds since 1985-01-01 00:00:00 UTC]
# Col  2    = latitude [degrees_north]
# Col  3    = longitude [degrees_east]
# Col  4    = sea level anomaly [m]
1234342478.000000  75.397150   51.771663   0.0728
1234342578.000000  70.313652   40.913431  -0.0223
1234343213.000000  34.037863   19.181149  -0.1083
1234343874.000000  -4.953854    9.830116  -0.0389
1234343974.000000 -10.859708    8.504367  -0.0270
1234344074.000000 -16.758628    7.142499   0.0090
1234344174.000000 -22.647503    5.720920  -0.0095
1234344274.000000 -28.522987    4.210304   0.0478
1234344374.000000 -34.381258    2.571849  -0.0470
1234344474.000000 -40.217591    0.751222   0.0384
1234344574.000000 -46.025564   -1.331932   0.0269
1234344674.000000 -51.795532   -3.803411   0.0154
1234344774.000000 -57.511526   -6.873116  -0.0010
1234344874.000000 -63.144351  -10.918656  -0.0254
1234344974.000000 -68.634443  -16.684040   0.0639

# RADS_ASC
# Created: 2024-06-03 09:32:23 UTC: rads2asc -S s3a -V time,lat,lon,sla -o s3a_240212_noiono_100.asc --ymd 240212,240213 -X no_iono.xml --step 100
# Satellite = SNTNL-3A
# Phase     = a
# Cycle     = 109
# Pass      = 0101
# Equ_time  = 1234346824.232000 (2024-02-12 10:07:04.232000)
# Equ_lon   =  178.290000
# Original  = S3A_SR_2_WAT___109_101______MAR_O_ST_005.nc (IPF-SM-2 07.04)
# Col  1    = time [seconds since 1985-01-01 00:00:00 UTC]
# Col  2    = latitude [degrees_north]
# Col  3    = longitude [degrees_east]
# Col  4    = sea level anomaly [m]
1234345705.000000 -65.108569 -158.079295   0.0069
1234345805.000000 -59.516995 -162.619033   0.1250
1234345905.000000 -53.826116 -165.978072   0.2066
1234346005.000000 -48.073003 -168.631076   0.2100
1234346105.000000 -42.277196 -170.834038   0.1055
1234346205.000000 -36.450096 -172.736577   0.1546
1234346305.000000 -30.599037 -174.432229   0.0324
1234346405.000000 -24.729229 -175.983006  -0.0085
1234346505.000000 -18.844748 -177.432350   0.0906
1234346605.000000 -12.949076 -178.812423  -0.1853
1234346705.000000  -7.045390  179.851489   0.0600
1234346805.000000  -1.136723  178.538115  -0.0057
1234346905.000000   4.773943  177.228151   0.0471
1234347005.000000  10.683613  175.902576  -0.0063
1234347105.000000  16.589227  174.541019  -0.0389
1234347205.000000  22.487586  173.119880  -0.1151
1234347305.000000  28.375218  171.609812  -0.0367
1234347405.000000  34.248146  169.971971  -0.0679
1234347505.000000  40.101458  168.151931   0.1080
1234347605.000000  45.928516  166.069148  -0.0089
1234347705.000000  51.719423  163.597405   0.0056

# RADS_ASC
# Created: 2024-06-03 09:32:23 UTC: rads2asc -S s3a -V time,lat,lon,sla -o s3a_240212_noiono_100.asc --ymd 240212,240213 -X no_iono.xml --step 100
# Satellite = SNTNL-3A
# Phase     = a
# Cycle     = 109
# Pass      = 0102
# Equ_time  = 1234349849.342000 (2024-02-12 10:57:29.342000)
# Equ_lon   =  -14.310000
# Original  = S3A_SR_2_WAT___109_102______MAR_O_ST_005.nc (IPF-SM-2 07.04)
# Col  1    = time [seconds since 1985-01-01 00:00:00 UTC]
# Col  2    = latitude [degrees_north]
# Col  3    = longitude [degrees_east]
# Col  4    = sea level anomaly [m]
1234348537.000000  75.405021   26.553244  -0.0568
1234348637.000000  70.322676   15.683561   0.1690
1234348737.000000  64.876379    9.081329  -0.0456
1234348837.000000  59.256049    4.591438  -0.0179
1234348937.000000  53.539265    1.263108  -0.0756
1234349085.000000  44.974671   -2.465139   0.1121
1234349762.000000   5.162747  -13.173570  -0.0694
1234349862.000000  -0.748109  -14.484039  -0.1115
1234349962.000000  -6.657167  -15.796680  -0.0480
1234350062.000000 -12.561444  -17.130731  -0.1089
1234350162.000000 -18.457910  -18.507280  -0.0949
1234350262.000000 -24.343403  -19.951277  -0.0492
1234350362.000000 -30.214470  -21.494326   0.0799
1234350462.000000 -36.067085  -23.178952  -0.1180
1234350562.000000 -41.896132  -25.065644  -0.0575
1234350662.000000 -47.694461  -27.245301   0.2990
1234350762.000000 -53.451026  -29.862747   0.0239
1234350862.000000 -59.147013  -33.164593   0.0174
1234350962.000000 -64.746981  -37.605490   0.0043

# RADS_ASC
# Created: 2024-06-03 09:32:23 UTC: rads2asc -S s3a -V time,lat,lon,sla -o s3a_240212_noiono_100.asc --ymd 240212,240213 -X no_iono.xml --step 100
# Satellite = SNTNL-3A
# Phase     = a
# Cycle     = 109
# Pass      = 0103
# Equ_time  = 1234352883.366000 (2024-02-12 11:48:03.366000)
# Equ_lon   =  153.040000
# Original  = S3A_SR_2_WAT___109_103______MAR_O_ST_005.nc (IPF-SM-2 07.04)
# Col  1    = time [seconds since 1985-01-01 00:00:00 UTC]
# Col  2    = latitude [degrees_north]
# Col  3    = longitude [degrees_east]
# Col  4    = sea level anomaly [m]
1234351717.000000 -67.689668  179.467998  -0.0777
1234351817.000000 -62.167957  174.084584  -0.2030
1234351917.000000 -56.517547  170.248717   0.1175
1234352017.000000 -50.790567  167.304324   0.0643
1234352117.000000 -45.013095  164.912672   0.0067
1234352217.000000 -39.199654  162.882782   0.0410
1234352317.000000 -33.359163  161.098832  -0.0430
1234352417.000000 -27.497665  159.486074   0.0608
